t [days], x [Au], y [Au], z [Au]
0.0,2.3576872855408686,0.0029134070677097382,0.0
0.5,2.3576838731333805,0.0058268141354194765,0.0
1.0,2.357677048326224,0.00874021698305068,0.0
1.5,2.357666811113198,0.011653611390472815,0.0
2.0,2.357653161474076,0.014566993137414712,0.0
2.5,2.3576360993746093,0.0174803580033759,0.0
3.0,2.357615624766527,0.020393701767537947,0.0
3.5,2.357591737587532,0.023307020208675776,0.0
4.0,2.3575644377613045,0.026220309105068968,0.0
4.5,2.3575337251974964,0.029133564234413045,0.0
5.0,2.3574995997917347,0.03204678137373069,0.0
5.5,2.3574620614256143,0.034959956299283,0.0
6.0,2.3574211099667,0.037873084786480625,0.0
6.5,2.357376745268524,0.04078616260979489,0.0
7.0,2.357328967170581,0.04369918554266889,0.0
7.5,2.357277775498325,0.04661214935742852,0.0
8.0,2.3572231700631705,0.04952504982519344,0.0
8.5,2.357165150662485,0.05243788271578794,0.0
9.0,2.3571037170795854,0.05535064379765184,0.0
9.5,2.357038869083736,0.05826332883775119,0.0
10.0,2.3569706064301426,0.06117593360148898,0.0
10.5,2.35689892885995,0.06408845385261572,0.0
11.0,2.3568238361002343,0.06700088535314003,0.0
11.5,2.3567453278639996,0.06991322386323891,0.0
12.0,2.3566634038501717,0.07282546514116818,0.0
12.5,2.3565780637435942,0.07573760494317267,0.0
13.0,2.356489307215019,0.0786496390233963,0.0
13.5,2.356397133921103,0.08156156313379215,0.0
14.0,2.356301543504402,0.08447337302403224,0.0
14.5,2.356202535593362,0.08738506444141733,0.0
15.0,2.3561001098023104,0.09029663313078659,0.0
15.5,2.3559942657314528,0.09320807483442703,0.0
16.0,2.3558850029668625,0.0961193852919829,0.0
16.5,2.355772321080475,0.09903056024036491,0.0
17.0,2.355656219630077,0.10194159541365928,0.0
17.5,2.355536698159298,0.1048524865430367,0.0
18.0,2.355413756197603,0.10776322935666095,0.0
18.5,2.355287393260283,0.1106738195795977,0.0
19.0,2.3551576088484456,0.11358425293372279,0.0
19.5,2.3550244024490046,0.1164945251376305,0.0
20.0,2.354887773534671,0.11940463190654177,0.0
20.5,2.354747721563941,0.12231456895221184,0.0
21.0,2.3546042459810885,0.12522433198283814,0.0
21.5,2.3544573462161495,0.12813391670296775,0.0
22.0,2.3543070216849173,0.1310433188134048,0.0
22.5,2.3541532717889257,0.13395253401111745,0.0
23.0,2.35399609591544,0.1368615579891447,0.0
23.5,2.353835493437443,0.1397703864365034,0.0
24.0,2.3536714637136256,0.1426790150380944,0.0
24.5,2.353504006088371,0.145587439474609,0.0
25.0,2.353333119891744,0.14849565542243467,0.0
25.5,2.3531588044394796,0.15140365855356128,0.0
26.0,2.352981059032962,0.15431144453548615,0.0
26.5,2.3527998829592205,0.1572190090311197,0.0
27.0,2.3526152754909098,0.16012634769869027,0.0
27.5,2.3524272358862968,0.1630334561916489,0.0
28.0,2.3522357633892454,0.165940330158574,0.0
28.5,2.352040857229202,0.16884696524307533,0.0
29.0,2.3518425166211814,0.1717533570836983,0.0
29.5,2.3516407407657507,0.17465950131382726,0.0
30.0,2.3514355288490116,0.1775653935615894,0.0
30.5,2.351226880042588,0.18047102944975735,0.0
31.0,2.351014793503605,0.18337640459565233,0.0
31.5,2.3507992683746766,0.18628151461104647,0.0
32.0,2.350580303783886,0.1891863551020652,0.0
32.5,2.3503578988447686,0.19209092166908887,0.0
33.0,2.3501320526562957,0.19499520990665467,0.0
33.5,2.3499027643028545,0.19789921540335756,0.0
34.0,2.3496700328542333,0.2008029337417513,0.0
34.5,2.349433857365599,0.20370636049824908,0.0
35.0,2.349194236877481,0.20660949124302366,0.0
35.5,2.34895117041575,0.2095123215399073,0.0
36.0,2.3487046569916017,0.2124148469462913,0.0
36.5,2.3484546956015344,0.2153170630130251,0.0
37.0,2.348201285227329,0.21821896528431511,0.0
37.5,2.34794442483603,0.22112054929762312,0.0
38.0,2.3476841133799247,0.22402181058356443,0.0
38.5,2.347420349796521,0.22692274466580528,0.0
39.0,2.347153133008527,0.22982334706096053,0.0
39.5,2.34688246192383,0.23272361327848992,0.0
40.0,2.3466083354354748,0.23562353882059525,0.0
40.5,2.3463307524216392,0.23852311918211572,0.0
41.0,2.3460497117456147,0.2414223498504241,0.0
41.5,2.345765212255781,0.24432122630532163,0.0
42.0,2.345477252785584,0.247219744018933,0.0
42.5,2.345185832153512,0.25011789845560056,0.0
43.0,2.3448909491630734,0.25301568507177813,0.0
43.5,2.34459260260277,0.2559130993159247,0.0
44.0,2.3442907912460758,0.2588101366283973,0.0
44.5,2.34398551385141,0.2617067924413433,0.0
45.0,2.3436767691621125,0.2646030621785929,0.0
45.5,2.3433645559064176,0.26749894125555035,0.0
46.0,2.3430488727974312,0.2703944250790853,0.0
46.5,2.342729718533102,0.27328950904742305,0.0
47.0,2.3424070917961974,0.27618418855003496,0.0
47.5,2.342080991254274,0.27907845896752803,0.0
48.0,2.341751415559653,0.2819723156715337,0.0
48.5,2.3414183633493924,0.28486575402459696,0.0
49.0,2.3410818332452594,0.2877587693800636,0.0
49.5,2.340741823853703,0.29065135708196865,0.0
50.0,2.340398333765824,0.29354351246492244,0.0
50.5,2.3400513615573475,0.29643523085399764,0.0
51.0,2.339700905788595,0.2993265075646147,0.0
51.5,2.3393469650044536,0.30221733790242744,0.0
52.0,2.3389895377343457,0.3051077171632076,0.0
52.5,2.3386286224922026,0.30799764063272916,0.0
53.0,2.338264217776431,0.31088710358665156,0.0
53.5,2.337896322069882,0.31377610129040306,0.0
54.0,2.3375249338398243,0.31666462899906267,0.0
54.5,2.337150051537909,0.31955268195724224,0.0
55.0,2.336771673600139,0.32244025539896753,0.0
55.5,2.336389798446837,0.3253273445475586,0.0
56.0,2.3360044244826157,0.3282139446155094,0.0
56.5,2.335615550096339,0.3311000508043678,0.0
57.0,2.3352231736610967,0.33398565830461313,0.0
57.5,2.3348272935341656,0.33687076229553503,0.0
58.0,2.334427908056979,0.33975535794510975,0.0
58.5,2.334025015555091,0.3426394404098778,0.0
59.0,2.333618614338142,0.34552300483481885,0.0
59.5,2.3332087026998254,0.3484060463532274,0.0
60.0,2.33279527891785,0.35128856008658715,0.0
60.5,2.3323783412539107,0.35417054114444485,0.0
61.0,2.3319578879536436,0.3570519846242831,0.0
61.5,2.331533917246597,0.3599328856113931,0.0
62.0,2.3311064273461928,0.3628132391787457,0.0
62.5,2.3306754164496883,0.36569304038686246,0.0
63.0,2.3302408827381416,0.368572284283686,0.0
63.5,2.329802824376371,0.371450965904449,0.0
64.0,2.32936123951292,0.3743290802715425,0.0
64.5,2.3289161262800184,0.37720662239438424,0.0
65.0,2.3284674827935423,0.3800835872692852,0.0
65.5,2.3280153071529743,0.38295996987931574,0.0
66.0,2.3275595974413683,0.3858357651941712,0.0
66.5,2.327100351725306,0.3887109681700359,0.0
67.0,2.3266375680548577,0.3915855737494477,0.0
67.5,2.3261712444635423,0.3944595768611595,0.0
68.0,2.325701378968287,0.3973329724200027,0.0
68.5,2.3252279695693843,0.4002057553267471,0.0
69.0,2.324751014250451,0.4030779204679618,0.0
69.5,2.3242705109783888,0.4059494627158742,0.0
70.0,2.323786457703337,0.4088203769282287,0.0
70.5,2.323298852358636,0.411690657948144,0.0
71.0,2.322807692860777,0.41456030060397,0.0
71.5,2.3223129771093647,0.41742929970914316,0.0
72.0,2.3218147029870715,0.42029765006204156,0.0
72.5,2.3213128683595907,0.4231653464458384,0.0
73.0,2.3208074710755953,0.4260323836283551,0.0
73.5,2.3202985089666903,0.4288987563619128,0.0
74.0,2.3197859798473703,0.43176445938318403,0.0
74.5,2.319269881514971,0.43462948741304147,0.0
75.0,2.318750211749624,0.43749383515640755,0.0
75.5,2.3182269683142094,0.4403574973021021,0.0
76.0,2.3177001489543105,0.4432204685226894,0.0
76.5,2.3171697513981653,0.4460827434743235,0.0
77.0,2.316635773356618,0.4489443167965929,0.0
77.5,2.3160982125230722,0.45180518311236506,0.0
78.0,2.3155570665734406,0.4546653370276279,0.0
78.5,2.315012333166099,0.4575247731313318,0.0
79.0,2.314464009941834,0.4603834859952297,0.0
79.5,2.3139120945237948,0.46324147017371686,0.0
80.0,2.3133565845174404,0.46609872020366805,0.0
80.5,2.3127974775104945,0.46895523060427535,0.0
81.0,2.3122347710728857,0.47181099587688335,0.0
81.5,2.311668462756706,0.47466601050482443,0.0
82.0,2.3110985500961507,0.4775202689532512,0.0
82.5,2.3105250306074714,0.4803737656689698,0.0
83.0,2.30994790178892,0.4832264950802698,0.0
83.5,2.3093671611206985,0.4860784515967551,0.0
84.0,2.308782806064903,0.4889296296091714,0.0
84.5,2.30819483406547,0.4917800234892346,0.0
85.0,2.3076032425481237,0.4946296275894554,0.0
85.5,2.307008028920319,0.49747843624296517,0.0
86.0,2.306409190571188,0.500326443763339,0.0
86.5,2.305806724871483,0.5031736444444175,0.0
87.0,2.3052006291735214,0.506020032560128,0.0
87.5,2.304590900811127,0.5088656023643034,0.0
88.0,2.3039775370995774,0.5117103480905009,0.0
88.5,2.3033605353355413,0.5145542639518178,0.0
89.0,2.302739892797025,0.5173973441407075,0.0
89.5,2.3021156067433104,0.520239582828793,0.0
90.0,2.3014876744148998,0.5230809741666791,0.0
90.5,2.3008560930334534,0.5259215122837639,0.0
91.0,2.3002208598017315,0.5287611912880481,0.0
91.5,2.2995819719035353,0.5316000052659425,0.0
92.0,2.2989394265036425,0.534437948282075,0.0
92.5,2.2982932207477513,0.5372750143790957,0.0
93.0,2.297643351762415,0.5401111975774802,0.0
93.5,2.2969898166549827,0.542946491875331,0.0
94.0,2.296332612513536,0.5457808912481789,0.0
94.5,2.2956717364068235,0.548614389648781,0.0
95.0,2.2950071853842022,0.5514469810069179,0.0
95.5,2.2943389564755714,0.5542786592291894,0.0
96.0,2.2936670466913074,0.5571094181988084,0.0
96.5,2.292991453022201,0.559939251775393,0.0
97.0,2.2923121724393907,0.5627681537947571,0.0
97.5,2.2916292018942976,0.5655961180686991,0.0
98.0,2.290942538318561,0.5684231383847893,0.0
98.5,2.290252178623968,0.571249208506155,0.0
99.0,2.2895581197023898,0.574074322171264,0.0
99.5,2.2888603584257123,0.576898473093707,0.0
100.0,2.28815889164577,0.5797216549619767,0.0
100.5,2.287453716194275,0.5825438614392469,0.0
101.0,2.2867448288827505,0.5853650861631482,0.0
101.5,2.2860322265024595,0.5881853227455429,0.0
102.0,2.285315905824336,0.5910045647722976,0.0
102.5,2.2845958635989145,0.5938228058030534,0.0
103.0,2.2838720965562573,0.5966400393709945,0.0
103.5,2.2831446014058847,0.5994562589826161,0.0
104.0,2.282413374836705,0.6022714581174881,0.0
104.5,2.2816784135169375,0.6050856302280182,0.0
105.0,2.280939714094044,0.6078987687392129,0.0
105.5,2.2801972731946525,0.6107108670484359,0.0
106.0,2.279451087424485,0.613521918525165,0.0
106.5,2.27870115336828,0.6163319165107464,0.0
107.0,2.2779474675897244,0.6191408543181471,0.0
107.5,2.27719002663137,0.6219487252317055,0.0
108.0,2.2764288270145636,0.6247555225068792,0.0
108.5,2.275663865239366,0.6275612393699903,0.0
109.0,2.27489513778448,0.6303658690179704,0.0
109.5,2.27412264110717,0.6331694046181005,0.0
110.0,2.2733463716431825,0.6359718393077516,0.0
110.5,2.2725663258066717,0.6387731661941201,0.0
111.0,2.271782499990117,0.6415733783539631,0.0
111.5,2.2709948905642454,0.6443724688333302,0.0
112.0,2.270203493877951,0.6471704306472933,0.0
112.5,2.269408306258214,0.6499672567796736,0.0
113.0,2.268609324010022,0.6527629401827674,0.0
113.5,2.267806543416284,0.6555574737770667,0.0
114.0,2.266999960737752,0.6583508504509807,0.0
114.5,2.266189572212937,0.6611430630605523,0.0
115.0,2.265375374058026,0.6639341044291724,0.0
115.5,2.2645573624667996,0.6667239673472936,0.0
116.0,2.2637355336105442,0.6695126445721378,0.0
116.5,2.262909883637972,0.6723001288274038,0.0
117.0,2.2620804086751307,0.675086412802972,0.0
117.5,2.261247104825323,0.6778714891546049,0.0
118.0,2.2604099681690157,0.6806553505036462,0.0
118.5,2.2595689947637565,0.6834379894367165,0.0
119.0,2.2587241806440823,0.6862193985054061,0.0
119.5,2.257875521821435,0.6889995702259654,0.0
120.0,2.2570230142840733,0.6917784970789922,0.0
120.5,2.2561666539969787,0.6945561715091155,0.0
121.0,2.255306436901772,0.6973325859246774,0.0
121.5,2.2544423589166196,0.7001077326974108,0.0
122.0,2.253574415936143,0.7028816041621154,0.0
122.5,2.252702603831329,0.7056541926163294,0.0
123.0,2.2518269184494386,0.7084254903199981,0.0
123.5,2.250947355613911,0.7111954894951408,0.0
124.0,2.2500639111242737,0.7139641823255127,0.0
124.5,2.2491765807560506,0.716731560956265,0.0
125.0,2.2482853602606627,0.7194976174936003,0.0
125.5,2.24739024536534,0.722262344004426,0.0
126.0,2.2464912317730206,0.7250257325160037,0.0
126.5,2.24558831516226,0.7277877750155951,0.0
127.0,2.244681491187132,0.7305484634501049,0.0
127.5,2.243770755477134,0.73330778972572,0.0
128.0,2.242856103637087,0.7360657457075443,0.0
128.5,2.2419375312470406,0.7388223232192322,0.0
129.0,2.241015033862172,0.7415775140426158,0.0
129.5,2.2400886070126917,0.7443313099173302,0.0
130.0,2.2391582462037385,0.7470837025404342,0.0
130.5,2.2382239469152823,0.7498346835660279,0.0
131.0,2.2372857046020242,0.7525842446048664,0.0
131.5,2.2363435146932957,0.7553323772239687,0.0
132.0,2.2353973725929532,0.7580790729462242,0.0
132.5,2.2344472736792813,0.7608243232499939,0.0
133.0,2.2334932133048846,0.7635681195687083,0.0
133.5,2.23253518679659,0.7663104532904613,0.0
134.0,2.2315731894553386,0.7690513157575998,0.0
134.5,2.230607216556084,0.7717906982663089,0.0
135.0,2.229637263347685,0.7745285920661931,0.0
135.5,2.228663325052802,0.7772649883598538,0.0
136.0,2.2276853968677908,0.7799998783024613,0.0
136.5,2.226703473962596,0.7827332530013238,0.0
137.0,2.2257175514806424,0.7854651035154501,0.0
137.5,2.22472762453873,0.7881954208551101,0.0
138.0,2.2237336882269236,0.7909241959813894,0.0
138.5,2.2227357376084456,0.7936514198057388,0.0
139.0,2.221733767719567,0.7963770831895207,0.0
139.5,2.2207277735694944,0.7991011769435494,0.0
140.0,2.2197177501402656,0.8018236918276272,0.0
140.5,2.218703692386633,0.8045446185500758,0.0
141.0,2.2176855952359564,0.8072639477672617,0.0
141.5,2.2166634535880885,0.809981670083119,0.0
142.0,2.215637262315264,0.8126977760486649,0.0
142.5,2.214607016261986,0.8154122561615099,0.0
143.0,2.213572710244913,0.8181251008653656,0.0
143.5,2.2125343390527448,0.8208363005495436,0.0
144.0,2.2114918974461086,0.823545845548452,0.0
144.5,2.2104453801574437,0.8262537261410855,0.0
145.0,2.2093947818908846,0.8289599325505095,0.0
145.5,2.2083400973221488,0.8316644549433387,0.0
146.0,2.2072813210984163,0.8343672834292117,0.0
146.5,2.2062184478382143,0.8370684080602582,0.0
147.0,2.2051514721313024,0.8397678188305606,0.0
147.5,2.204080388538549,0.8424655056756112,0.0
148.0,2.2030051915918194,0.8451614584717612,0.0
148.5,2.2019258757938505,0.847855667035666,0.0
149.0,2.2008424356181373,0.8505481211237232,0.0
149.5,2.1997548655088095,0.8532388104315044,0.0
150.0,2.1986631598805118,0.8559277245931817,0.0
150.5,2.1975673131182845,0.8586148531809461,0.0
151.0,2.196467319577441,0.8613001857044221,0.0
151.5,2.1953631735834476,0.8639837116100734,0.0
152.0,2.194254869431798,0.8666654202806033,0.0
152.5,2.193142401387897,0.8693453010343477,0.0
153.0,2.1920257636869303,0.872023343124663,0.0
153.5,2.1909049505337466,0.8746995357393045,0.0
154.0,2.189779956102731,0.8773738679998002,0.0
154.5,2.188650774537683,0.8800463289608166,0.0
155.0,2.187517399951688,0.8827169076095167,0.0
155.5,2.1863798264269967,0.8853855928649125,0.0
156.0,2.185238048014896,0.8880523735772085,0.0
156.5,2.1840920587355854,0.8907172385271388,0.0
157.0,2.1829418525780504,0.8933801764252962,0.0
157.5,2.1817874234999337,0.8960411759114539,0.0
158.0,2.1806287654274112,0.8987002255538792,0.0
158.5,2.179465872255062,0.9013573138486397,0.0
159.0,2.1782987378457417,0.9040124292189006,0.0
159.5,2.1771273560304545,0.906665560014216,0.0
160.0,2.1759517206082224,0.9093166945098097,0.0
160.5,2.1747718253459594,0.9119658209058488,0.0
161.0,2.1735876639783385,0.9146129273267087,0.0
161.5,2.1723992302076645,0.9172580018202305,0.0
162.0,2.1712065177037427,0.9199010323569677,0.0
162.5,2.170009520103748,0.9225420068294257,0.0
163.0,2.168808231012093,0.9251809130512926,0.0
163.5,2.1676026440002985,0.9278177387566596,0.0
164.0,2.166392752606859,0.9304524715992339,0.0
164.5,2.1651785503371133,0.9330850991515399,0.0
165.0,2.1639600306631093,0.9357156089041144,0.0
165.5,2.1627371870234695,0.9383439882646895,0.0
166.0,2.161510012823261,0.9409702245573665,0.0
166.5,2.1602785014338544,0.9435943050217801,0.0
167.0,2.1590426461927974,0.9462162168122533,0.0
167.5,2.1578024404036706,0.9488359469969416,0.0
168.0,2.1565578773359557,0.9514534825569659,0.0
168.5,2.1553089502248963,0.954068810385537,0.0
169.0,2.15405565227136,0.9566819172870684,0.0
169.5,2.152797976641699,0.9592927899762782,0.0
170.0,2.15153591646761,0.9619014150772809,0.0
170.5,2.1502694648459935,0.9645077791226674,0.0
171.0,2.148998614838807,0.9671118685525748,0.0
171.5,2.147723359472926,0.9697136697137432,0.0
172.0,2.146443691739994,0.9723131688585623,0.0
172.5,2.145159604596273,0.974910352144107,0.0
173.0,2.143871090962497,0.9775052056311585,0.0
173.5,2.1425781437237137,0.9800977152832161,0.0
174.0,2.1412807557291322,0.9826878669654949,0.0
174.5,2.13997891979196,0.9852756464439133,0.0
175.0,2.138672628689237,0.9878610393840639,0.0
175.5,2.1373618751616683,0.9904440313501756,0.0
176.0,2.136046651913448,0.9930246078040608,0.0
176.5,2.1347269516120755,0.9956027541040493,0.0
177.0,2.1334027668881643,0.9981784555039096,0.0
177.5,2.1320740903352395,1.0007516971517552,0.0
178.0,2.1307409145095253,1.0033224640889369,0.0
178.5,2.1294032319297163,1.0058907412489224,0.0
179.0,2.1280610350767297,1.0084565134561592,0.0
179.5,2.1267143163934406,1.011019765424923,0.0
180.0,2.1253630682843827,1.0135804817581513,0.0
180.5,2.124007283115421,1.0161386469462605,0.0
181.0,2.1226469532133816,1.0186942453659438,0.0
181.5,2.1212820708656266,1.0212472612789554,0.0
182.0,2.1199126283195633,1.023797678830872,0.0
182.5,2.118538617782067,1.0263454820498346,0.0
183.0,2.117160031418786,1.0288906548452679,0.0
183.5,2.1157768613533023,1.0314331810065729,0.0
184.0,2.1143890996660883,1.0339730442017863,0.0
184.5,2.112996738393187,1.0365102279762028,0.0
185.0,2.111599769524521,1.0390447157509455,0.0
185.5,2.1101981850016482,1.041576490821466,0.0
186.0,2.1087919767147536,1.0441055363559462,0.0
186.5,2.107381136498457,1.0466318353935435,0.0
187.0,2.105965656125837,1.0491553708423902,0.0
187.5,2.1045455272995808,1.051676125477169,0.0
188.0,2.10312074163833,1.0541940819359212,0.0
188.5,2.1016912906545535,1.0567092227153574,0.0
189.0,2.1002571657164193,1.0592215301630135,0.0
189.5,2.0988183579767474,1.0617309864620394,0.0
190.0,2.0973748582261593,1.0642375735963452,0.0
190.5,2.0959266565422054,1.0667412732527466,0.0
191.0,2.094473741246802,1.0692420664555102,0.0
191.5,2.0930160944414498,1.0717399313430374,0.0
192.0,2.091553657005228,1.074234801875659,0.0
192.5,2.090086552288112,1.0767266775795727,0.0
193.0,2.088614712162927,1.0792155748308314,0.0
193.5,2.0871381254933477,1.0817014746604323,0.0
194.0,2.0856567828583965,1.0841843577440509,0.0
194.5,2.0841706752589357,1.0866642047096264,0.0
195.0,2.0826797938144836,1.089140996096665,0.0
195.5,2.0811841296716658,1.0916147123248123,0.0
196.0,2.079683673970004,1.094085333676523,0.0
196.5,2.078178417826991,1.096552840287036,0.0
197.0,2.0766683523307714,1.099017212137979,0.0
197.5,2.0751534685362345,1.1014784290528428,0.0
198.0,2.0736337574627646,1.1039364706934596,0.0
198.5,2.0721092100928824,1.1063913165570496,0.0
199.0,2.0705798173713807,1.108842945973596,0.0
199.5,2.069045570204754,1.1112913381034122,0.0
200.0,2.0675064594608155,1.1137364719348228,0.0
200.5,2.065962475968434,1.116178326281911,0.0
201.0,2.064413610517345,1.1186168797823026,0.0
201.5,2.062859853858028,1.121052110894963,0.0
202.0,2.0613011967016153,1.1234839978979974,0.0
202.5,2.0597376297198386,1.1259125188864443,0.0
203.0,2.0581691435449962,1.1283376517700539,0.0
203.5,2.0565957287699392,1.1307593742710491,0.0
204.0,2.0550173759480765,1.133177663921864,0.0
204.5,2.0534340755933953,1.135592498062856,0.0
205.0,2.0518458181804853,1.1380038538399933,0.0
205.5,2.050252594144588,1.1404117082025123,0.0
206.0,2.0486543938816464,1.142816037900544,0.0
206.5,2.047051207748367,1.1452168194827095,0.0
