t [days], x [Au], y [Au], z [Au]
0.0,5.250697709600731,0.003807823037496628,0.0
0.5,5.2506903772549185,0.00761564471467872,0.0
1.0,5.250679378748655,0.01142346367118129,0.0
1.5,5.250664714099159,0.015231278546550809,0.0
2.0,5.250646383330332,0.01903908798020712,0.0
2.5,5.250624386472754,0.022846890611405338,0.0
3.0,5.250598723563693,0.026654685079197823,0.0
3.5,5.250569394647085,0.03046247002239611,0.0
4.0,5.250536399773549,0.0342702440795329,0.0
4.5,5.25049973900037,0.03807800588882405,0.0
5.0,5.250459412391504,0.04188575408813064,0.0
5.5,5.2504154200175694,0.04569348731492101,0.0
6.0,5.250367761955843,0.04950120420623288,0.0
6.5,5.250316438290255,0.053308903398635504,0.0
7.0,5.250261449111387,0.057116583528191864,0.0
7.5,5.2502027945164595,0.060924243230420894,0.0
8.0,5.250140474609332,0.06473188114025978,0.0
8.5,5.250074489500492,0.06853949589202632,0.0
9.0,5.250004839307052,0.07234708611938133,0.0
9.5,5.249931524152735,0.07615465045529111,0.0
10.0,5.2498545441678734,0.07996218753199,0.0
10.5,5.249773899489399,0.08376969598094292,0.0
11.0,5.2496895902608305,0.08757717443280816,0.0
11.5,5.249601616632269,0.09138462151740004,0.0
12.0,5.249509978760386,0.09519203586365184,0.0
12.5,5.249414676808414,0.09899941609957863,0.0
13.0,5.249315710946133,0.10280676085224036,0.0
13.5,5.249213081349866,0.10661406874770492,0.0
14.0,5.24910678820246,0.11042133841101134,0.0
14.5,5.2489968316932805,0.11422856846613313,0.0
15.0,5.248883212018197,0.1180357575359416,0.0
15.5,5.248765929379569,0.12184290424216944,0.0
16.0,5.248644983986237,0.1256500072053743,0.0
16.5,5.248520376053504,0.12945706504490254,0.0
17.0,5.248392105803126,0.1332640763788529,0.0
17.5,5.248260173463295,0.1370710398240408,0.0
18.0,5.2481245792686275,0.1408779539959621,0.0
18.5,5.2479853234601475,0.1446848175087574,0.0
19.0,5.24784240628527,0.14849162897517645,0.0
19.5,5.247695827997786,0.15229838700654252,0.0
20.0,5.247545588857851,0.156105090212717,0.0
20.5,5.247391689131962,0.1599117372020643,0.0
21.0,5.247234129092944,0.1637183265814164,0.0
21.5,5.2470729090199315,0.1675248569560382,0.0
22.0,5.246908029198352,0.1713313269295925,0.0
22.5,5.246739489919907,0.17513773510410535,0.0
23.0,5.246567291482555,0.17894408007993154,0.0
23.5,5.246391434190492,0.1827503604557202,0.0
24.0,5.246211918354129,0.18655657482838073,0.0
24.5,5.24602874429008,0.19036272179304847,0.0
25.0,5.245841912321136,0.194168799943051,0.0
25.5,5.245651422776248,0.1979748078698744,0.0
26.0,5.245457275990503,0.2017807441631297,0.0
26.5,5.245259472305107,0.2055866074105194,0.0
27.0,5.245058012067361,0.20939239619780445,0.0
27.5,5.244852895630641,0.21319810910877107,0.0
28.0,5.244644123354377,0.21700374472519796,0.0
28.5,5.244431695604026,0.22080930162682363,0.0
29.0,5.244215612751055,0.22461477839131402,0.0
29.5,5.243995875172915,0.22842017359423009,0.0
30.0,5.243772483253019,0.23222548580899574,0.0
30.5,5.2435454373807175,0.236030713606866,0.0
31.0,5.243314737951273,0.23983585555689524,0.0
31.5,5.24308038536584,0.24364091022590573,0.0
32.0,5.242842380031437,0.24744587617845637,0.0
32.5,5.242600722360923,0.2512507519768114,0.0
33.0,5.2423554127729695,0.25505553618090987,0.0
33.5,5.242106451692041,0.2588602273483344,0.0
34.0,5.241853839548364,0.26266482403428143,0.0
34.5,5.241597576777902,0.26646932479153024,0.0
35.0,5.241337663822329,0.2702737281704134,0.0
35.5,5.241074101129004,0.27407803271878667,0.0
36.0,5.240806889150943,0.2778822369819996,0.0
36.5,5.240536028346794,0.281686339502866,0.0
37.0,5.2402615191808035,0.2854903388216347,0.0
37.5,5.239983362122795,0.2892942334759608,0.0
38.0,5.239701557648139,0.2930980220008768,0.0
38.5,5.239416106237723,0.2969017029287643,0.0
39.0,5.239127008377922,0.3007052747893254,0.0
39.5,5.238834264560574,0.30450873610955503,0.0
40.0,5.238537875282948,0.308312085413713,0.0
40.5,5.238237841047713,0.3121153212232965,0.0
41.0,5.2379341623629125,0.31591844205701247,0.0
41.5,5.237626839741928,0.31972144643075096,0.0
42.0,5.237315873703458,0.3235243328575582,0.0
42.5,5.237001264771477,0.3273270998476097,0.0
43.0,5.236683013475214,0.33112974590818417,0.0
43.5,5.236361120349117,0.33493226954363736,0.0
44.0,5.2360355859328225,0.3387346692553761,0.0
44.5,5.235706410771122,0.3425369435418326,0.0
45.0,5.235373595413938,0.3463390908984395,0.0
45.5,5.23503714041628,0.35014110981760416,0.0
46.0,5.234697046338223,0.35394299878868407,0.0
46.5,5.2343533137448714,0.3577447562979625,0.0
47.0,5.234005943206327,0.3615463808286235,0.0
47.5,5.233654935297655,0.36534787086072845,0.0
48.0,5.233300290598852,0.3691492248711916,0.0
48.5,5.232942009694814,0.37295044133375693,0.0
49.0,5.232580093175301,0.37675151871897444,0.0
49.5,5.232214541634906,0.3805524554941774,0.0
50.0,5.23184535567302,0.38435325012345917,0.0
50.5,5.231472535893797,0.3881539010676509,0.0
51.0,5.231096082906125,0.39195440678429916,0.0
51.5,5.230715997323584,0.3957547657276436,0.0
52.0,5.2303322797644185,0.3995549763485956,0.0
52.5,5.2299449308515005,0.4033550370947165,0.0
53.0,5.229553951212295,0.40715494641019606,0.0
53.5,5.229159341478824,0.4109547027358321,0.0
54.0,5.228761102287634,0.4147543045090093,0.0
54.5,5.2283592342797585,0.4185537501636787,0.0
55.0,5.227953738100685,0.42235303813033764,0.0
55.5,5.227544614400319,0.42615216683600987,0.0
56.0,5.227131863832948,0.4299511347042255,0.0
56.5,5.226715487057205,0.43374994015500207,0.0
57.0,5.226295484736034,0.43754858160482507,0.0
57.5,5.225871857536655,0.44134705746662917,0.0
58.0,5.225444606130527,0.4451453661497794,0.0
58.5,5.225013731193311,0.44894350606005307,0.0
59.0,5.224579233404835,0.4527414755996216,0.0
59.5,5.224141113449058,0.4565392731670325,0.0
60.0,5.223699372014033,0.46033689715719206,0.0
60.5,5.2232540097918685,0.4641343459613478,0.0
61.0,5.222805027478697,0.4679316179670717,0.0
61.5,5.222352425774633,0.47172871155824336,0.0
62.0,5.221896205383741,0.47552562511503327,0.0
62.5,5.221436367013992,0.4793223570138868,0.0
63.0,5.2209729113772365,0.4831189056275083,0.0
63.5,5.220505839189155,0.48691526932484525,0.0
64.0,5.220035151169233,0.4907114464710726,0.0
64.5,5.219560848040716,0.4945074354275783,0.0
65.0,5.219082930530576,0.4983032345519474,0.0
65.5,5.218601399369472,0.5020988421979483,0.0
66.0,5.218116255291715,0.5058942567155178,0.0
66.5,5.217627499035228,0.5096894764507472,0.0
67.0,5.217135131341511,0.5134844997458686,0.0
67.5,5.216639152955602,0.5172793249392407,0.0
68.0,5.216139564626039,0.5210739503653359,0.0
68.5,5.215636367104827,0.5248683743547277,0.0
69.0,5.2151295611473945,0.5286625952340767,0.0
69.5,5.214619147512558,0.5324566113261189,0.0
70.0,5.214105126962485,0.5362504209496533,0.0
70.5,5.2135875002626575,0.5400440224195294,0.0
71.0,5.213066268181833,0.5438374140466362,0.0
71.5,5.2125414314920056,0.5476305941378898,0.0
72.0,5.212012990968368,0.5514235609962227,0.0
72.5,5.211480947389281,0.5552163129205723,0.0
73.0,5.210945301536224,0.5590088482058707,0.0
73.5,5.2104060541937685,0.5628011651430337,0.0
74.0,5.2098632061495325,0.5665932620189509,0.0
74.5,5.209316758194146,0.570385137116475,0.0
75.0,5.208766711121216,0.5741767887144129,0.0
75.5,5.208213065727281,0.5779682150875157,0.0
76.0,5.207655822811784,0.5817594145064694,0.0
76.5,5.207094983177027,0.5855503852378859,0.0
77.0,5.206530547628134,0.5893411255442944,0.0
77.5,5.205962516973018,0.5931316336841324,0.0
78.0,5.205390892022339,0.5969219079117379,0.0
78.5,5.204815673589469,0.6007119464773412,0.0
79.0,5.204236862490454,0.6045017476270566,0.0
79.5,5.2036544595439755,0.6082913096028757,0.0
80.0,5.203068465571315,0.6120806306426594,0.0
80.5,5.202478881396315,0.6158697089801305,0.0
81.0,5.201885707845343,0.6196585428448678,0.0
81.5,5.201288945747254,0.6234471304622985,0.0
82.0,5.200688595933352,0.6272354700536924,0.0
82.5,5.200084659237355,0.6310235598361554,0.0
83.0,5.199477136495357,0.6348113980226238,0.0
83.5,5.19886602854579,0.6385989828218579,0.0
84.0,5.19825133622939,0.6423863124384376,0.0
84.5,5.197633060389157,0.646173385072756,0.0
85.0,5.197011201870321,0.649960198921015,0.0
85.5,5.196385761520301,0.6537467521752205,0.0
86.0,5.195756740188673,0.6575330430231772,0.0
86.5,5.1951241387271345,0.6613190696484847,0.0
87.0,5.19448795798946,0.6651048302305337,0.0
87.5,5.193848198831475,0.6688903229445005,0.0
88.0,5.193204862111012,0.672675545961345,0.0
88.5,5.192557948687877,0.6764604974478062,0.0
89.0,5.191907459423815,0.6802451755663993,0.0
89.5,5.191253395182473,0.6840295784754119,0.0
90.0,5.190595756829362,0.6878137043289018,0.0
90.5,5.189934545231824,0.691597551276694,0.0
91.0,5.189269761258995,0.6953811174643779,0.0
91.5,5.18860140578177,0.6991644010333059,0.0
92.0,5.187929479672768,0.70294740012059,0.0
92.5,5.187253983806294,0.706730112859101,0.0
93.0,5.18657491905831,0.7105125373774661,0.0
93.5,5.185892286306391,0.7142946718000678,0.0
94.0,5.185206086429696,0.7180765142470421,0.0
94.5,5.184516320308935,0.721858062834278,0.0
95.0,5.1838229888263285,0.7256393156734158,0.0
95.5,5.1831260928655745,0.7294202708718471,0.0
96.0,5.1824256333118175,0.7332009265327135,0.0
96.5,5.1817216110516116,0.736981280754907,0.0
97.0,5.181014026972885,0.7407613316330689,0.0
97.5,5.180302881964908,0.7445410772575904,0.0
98.0,5.1795881769182595,0.7483205157146127,0.0
98.5,5.178869912724792,0.7520996450860269,0.0
99.0,5.178148090277596,0.755878463449475,0.0
99.5,5.17742271047097,0.7596569688783502,0.0
100.0,5.176693774200387,0.7634351594417982,0.0
100.5,5.175961282362457,0.7672130332047175,0.0
101.0,5.1752252358548985,0.7709905882277611,0.0
101.5,5.174485635576505,0.774767822567338,0.0
102.0,5.173742482427109,0.7785447342756141,0.0
102.5,5.172995777307553,0.7823213214005144,0.0
103.0,5.172245521119655,0.7860975819857243,0.0
103.5,5.171491714766176,0.7898735140706925,0.0
104.0,5.17073435915079,0.793649115690632,0.0
104.5,5.16997345517805,0.7974243848765232,0.0
105.0,5.169209003753354,0.801199319655116,0.0
105.5,5.168441005782919,0.8049739180489325,0.0
106.0,5.1676694621737465,0.8087481780762699,0.0
106.5,5.166894373833591,0.8125220977512029,0.0
107.0,5.166115741670925,0.8162956750835871,0.0
107.5,5.165333566594917,0.8200689080790625,0.0
108.0,5.164547849515393,0.8238417947390563,0.0
108.5,5.163758591342807,0.8276143330607859,0.0
109.0,5.162965792988214,0.8313865210372641,0.0
109.5,5.1621694553632365,0.835158356657301,0.0
110.0,5.161369579380035,0.8389298379055091,0.0
110.5,5.160566165951278,0.8427009627623069,0.0
111.0,5.159759215990112,0.8464717292039228,0.0
111.5,5.158948730410133,0.8502421352023994,0.0
112.0,5.158134710125355,0.8540121787255985,0.0
112.5,5.157317156050184,0.8577818577372047,0.0
113.0,5.1564960690993855,0.8615511701967307,0.0
113.5,5.155671450188055,0.8653201140595215,0.0
114.0,5.154843300231594,0.8690886872767597,0.0
114.5,5.154011620145675,0.8728568877954703,0.0
115.0,5.15317641084622,0.8766247135585258,0.0
115.5,5.1523376732493675,0.8803921625046512,0.0
116.0,5.151495408271445,0.8841592325684295,0.0
116.5,5.150649616828942,0.8879259216803074,0.0
117.0,5.149800299838483,0.8916922277666002,0.0
117.5,5.148947458216799,0.8954581487494978,0.0
118.0,5.1480910928807,0.8992236825470705,0.0
118.5,5.147231204747048,0.9029888270732747,0.0
119.0,5.146367794732733,0.9067535802379586,0.0
119.5,5.1455008637546396,0.9105179399468689,0.0
120.0,5.144630412729628,0.914281904101656,0.0
120.5,5.143756442574502,0.9180454705998812,0.0
121.0,5.142878954205987,0.921808637335022,0.0
121.5,5.1419979485407,0.9255714021964794,0.0
122.0,5.141113426495127,0.929333763069584,0.0
122.5,5.140225388985596,0.9330957178356023,0.0
123.0,5.139333836928253,0.9368572643717439,0.0
123.5,5.138438771239033,0.9406184005511676,0.0
124.0,5.137540192833642,0.9443791242429893,0.0
124.5,5.136638102627523,0.9481394333122877,0.0
125.0,5.1357325015358395,0.9518993256201119,0.0
125.5,5.134823390473446,0.9556587990234882,0.0
126.0,5.133910770354867,0.9594178513754276,0.0
126.5,5.132994642094271,0.9631764805249325,0.0
127.0,5.132075006605447,0.9669346843170049,0.0
127.5,5.13115186480178,0.9706924605926524,0.0
128.0,5.130225217596231,0.9744498071888967,0.0
128.5,5.129295065901309,0.9782067219387804,0.0
129.0,5.128361410629052,0.9819632026713754,0.0
129.5,5.127424252691,0.9857192472117893,0.0
130.0,5.126483592998177,0.9894748533811741,0.0
130.5,5.125539432461065,0.9932300189967336,0.0
131.0,5.124591771989583,0.9969847418717309,0.0
131.5,5.123640612493065,1.0007390198154966,0.0
132.0,5.122685954880238,1.004492850633437,0.0
132.5,5.121727800059198,1.0082462321270405,0.0
133.0,5.1207661489373955,1.0119991620938875,0.0
133.5,5.119801002421605,1.0157516383276581,0.0
134.0,5.118832361417908,1.0195036586181392,0.0
134.5,5.117860226831677,1.023255220751233,0.0
135.0,5.116884599567545,1.0270063225089658,0.0
135.5,5.115905480529391,1.0307569616694958,0.0
136.0,5.114922870620321,1.0345071360071216,0.0
136.5,5.113936770742644,1.03825684329229,0.0
137.0,5.1129471817978525,1.0420060812916052,0.0
137.5,5.111954104686606,1.0457548477678362,0.0
138.0,5.110957540308707,1.0495031404799258,0.0
138.5,5.109957489563086,1.0532509571829995,0.0
139.0,5.108953953347776,1.0569982956283734,0.0
139.5,5.107946932559905,1.0607451535635621,0.0
140.0,5.106936428095662,1.0644915287322891,0.0
140.5,5.105922440850292,1.0682374188744936,0.0
141.0,5.104904971718067,1.0719828217263405,0.0
141.5,5.103884021592277,1.0757277350202277,0.0
142.0,5.102859591365204,1.0794721564847958,0.0
142.5,5.101831681928112,1.0832160838449365,0.0
143.0,5.1008002941712185,1.0869595148218016,0.0
143.5,5.099765428983689,1.0907024471328108,0.0
144.0,5.098727087253613,1.0944448784916616,0.0
144.5,5.097685269867986,1.0981868066083376,0.0
145.0,5.096639977712698,1.1019282291891173,0.0
145.5,5.095591211672511,1.1056691439365824,0.0
146.0,5.094538972631047,1.109409548549628,0.0
146.5,5.093483261470767,1.1131494407234703,0.0
147.0,5.09242407907296,1.1168888181496555,0.0
147.5,5.091361426317723,1.1206276785160696,0.0
148.0,5.0902953040839485,1.1243660195069456,0.0
148.5,5.089225713249305,1.1281038388028746,0.0
149.0,5.088152654690225,1.1318411340808128,0.0
149.5,5.087076129281888,1.1355779030140913,0.0
150.0,5.0859961378982055,1.1393141432724252,0.0
150.5,5.084912681411807,1.1430498525219215,0.0
151.0,5.083825760694026,1.1467850284250896,0.0
151.5,5.082735376614882,1.1505196686408483,0.0
152.0,5.081641530043069,1.1542537708245366,0.0
152.5,5.080544221845944,1.1579873326279215,0.0
153.0,5.079443452889503,1.1617203516992072,0.0
153.5,5.078339224038382,1.1654528256830436,0.0
154.0,5.077231536155829,1.1691847522205363,0.0
154.5,5.076120390103703,1.172916128949255,0.0
155.0,5.075005786742448,1.1766469535032413,0.0
155.5,5.073887726931091,1.1803772235130199,0.0
156.0,5.072766211527224,1.184106936605605,0.0
156.5,5.07164124138699,1.1878360904045107,0.0
157.0,5.070512817365076,1.1915646825297603,0.0
157.5,5.0693809403146926,1.1952927105978937,0.0
158.0,5.06824561108757,1.1990201722219769,0.0
158.5,5.067106830533938,1.2027470650116114,0.0
159.0,5.065964599502523,1.2064733865729427,0.0
159.5,5.064818918840527,1.2101991345086685,0.0
160.0,5.0636697893936224,1.213924306418048,0.0
160.5,5.06251721200594,1.2176488998969113,0.0
161.0,5.0613611875200535,1.2213729125376673,0.0
161.5,5.060201716776973,1.2250963419293128,0.0
162.0,5.0590388006161335,1.2288191856574409,0.0
162.5,5.05787243987538,1.2325414413042506,0.0
163.0,5.056702635390965,1.2362631064485545,0.0
163.5,5.055529387997529,1.239984178665788,0.0
164.0,5.0543526985280955,1.2437046555280178,0.0
164.5,5.053172567814061,1.2474245346039512,0.0
165.0,5.051988996685182,1.2511438134589434,0.0
165.5,5.050801985969569,1.2548624896550076,0.0
166.0,5.049611536493676,1.258580560750822,0.0
166.5,5.048417649082287,1.26229802430174,0.0
167.0,5.047220324558512,1.2660148778597973,0.0
167.5,5.0460195637437755,1.2697311189737213,0.0
168.0,5.044815367457807,1.2734467451889393,0.0
168.5,5.043607736518635,1.2771617540475864,0.0
169.0,5.042396671742574,1.2808761430885154,0.0
169.5,5.041182173944218,1.2845899098473035,0.0
170.0,5.039964243936435,1.2883030518562615,0.0
170.5,5.038742882530354,1.2920155666444424,0.0
171.0,5.03751809053536,1.2957274517376485,0.0
171.5,5.036289868759084,1.299438704658441,0.0
172.0,5.0350582180074,1.3031493229261477,0.0
172.5,5.033823139084407,1.3068593040568715,0.0
173.0,5.032584632792436,1.3105686455634973,0.0
173.5,5.03134269993203,1.3142773449557017,0.0
174.0,5.030097341301944,1.317985399739961,0.0
174.5,5.028848557699134,1.3216928074195582,0.0
175.0,5.0275963499187535,1.3253995654945914,0.0
175.5,5.0263407187541445,1.329105671461982,0.0
176.0,5.025081664996831,1.3328111228154833,0.0
176.5,5.023819189436514,1.3365159170456873,0.0
177.0,5.022553292861063,1.3402200516400329,0.0
177.5,5.0212839760565116,1.343923524082814,0.0
178.0,5.020011239807052,1.3476263318551873,0.0
178.5,5.018735084895024,1.3513284724351802,0.0
179.0,5.017455512100918,1.3550299432976975,0.0
179.5,5.016172522203361,1.3587307419145307,0.0
180.0,5.014886115979116,1.3624308657543642,0.0
180.5,5.013596294203074,1.366130312282784,0.0
181.0,5.012303057648251,1.3698290789622845,0.0
181.5,5.011006407085781,1.3735271632522763,0.0
182.0,5.009706343284911,1.377224562609094,0.0
182.5,5.0084028670129985,1.3809212744860029,0.0
183.0,5.007095979035503,1.3846172963332075,0.0
183.5,5.005785680115986,1.3883126255978573,0.0
184.0,5.004471971016102,1.3920072597240556,0.0
184.5,5.003154852495596,1.395701196152866,0.0
185.0,5.001834325312301,1.3993944323223197,0.0
185.5,5.00051039022213,1.4030869656674232,0.0
186.0,4.999183047979076,1.4067787936201641,0.0
186.5,4.9978522993352055,1.41046991360952,0.0
187.0,4.996518145040657,1.414160323061464,0.0
187.5,4.995180585843633,1.417850019398973,0.0
188.0,4.993839622490401,1.4215390000420332,0.0
188.5,4.9924952557252915,1.4252272624076479,0.0
189.0,4.991147486290686,1.428914803909845,0.0
189.5,4.989796314927023,1.432601621959682,0.0
190.0,4.988441742372793,1.4362877139652546,0.0
190.5,4.987083769364532,1.439973077331702,0.0
191.0,4.9857223966368185,1.4436577094612149,0.0
191.5,4.9843576249222785,1.4473416077530405,0.0
192.0,4.982989454951573,1.4510247696034908,0.0
192.5,4.981617887453401,1.4547071924059476,0.0
193.0,4.980242923154498,1.4583888735508708,0.0
193.5,4.978864562779631,1.462069810425802,0.0
194.0,4.977482807051595,1.4657500004153743,0.0
194.5,4.9760976566912145,1.4694294409013158,0.0
195.0,4.974709112417343,1.4731081292624573,0.0
195.5,4.973317174946855,1.4767860628747382,0.0
196.0,4.971921844994647,1.480463239111213,0.0
196.5,4.970523123273639,1.484139655342056,0.0
197.0,4.969121010494771,1.4878153089345703,0.0
197.5,4.967715507366996,1.4914901972531904,0.0
198.0,4.966306614597291,1.4951643176594904,0.0
198.5,4.964894332890641,1.4988376675121895,0.0
199.0,4.9634786629500525,1.5025102441671574,0.0
199.5,4.96205960547654,1.506182044977421,0.0
200.0,4.960637161169134,1.5098530672931687,0.0
200.5,4.959211330724873,1.5135233084617576,0.0
201.0,4.957782114838809,1.5171927658277184,0.0
201.5,4.956349514204003,1.520861436732761,0.0
202.0,4.954913529511527,1.524529318515781,0.0
202.5,4.953474161450461,1.5281964085128639,0.0
203.0,4.952031410707894,1.531862704057291,0.0
203.5,4.950585277968925,1.5355282024795454,0.0
204.0,4.949135763916659,1.5391929011073169,0.0
204.5,4.94768286923221,1.542856797265507,0.0
205.0,4.946226594594703,1.5465198882762345,0.0
205.5,4.944766940681267,1.5501821714588413,0.0
206.0,4.943303908167044,1.5538436441298966,0.0
206.5,4.941837497725182,1.5575043036032017,0.0
207.0,4.94036771002684,1.5611641471897968,0.0
207.5,4.938894545741187,1.5648231721979642,0.0
208.0,4.937418005535399,1.5684813759332341,0.0
208.5,4.935938090074666,1.5721387556983892,0.0
209.0,4.934454800022189,1.5757953087934702,0.0
209.5,4.932968136039181,1.5794510325157793,0.0
210.0,4.931478098784866,1.5831059241598862,0.0
210.5,4.929984688916488,1.586759981017632,0.0
211.0,4.928487907089299,1.5904132003781346,0.0
211.5,4.926987753956574,1.5940655795277918,0.0
212.0,4.925484230169601,1.5977171157502879,0.0
212.5,4.923977336377686,1.6013678063265964,0.0
213.0,4.9224670732281615,1.6050176485349847,0.0
213.5,4.920953441366374,1.6086666396510203,0.0
