t [days], x [Au], y [Au], z [Au]
0.0,0.0,0.0,0.0
0.5,4.173277096631552E-5,0.0,0.0
1.0,1.2519831289726382E-4,4.790341304777246E-13,0.0
1.5,2.5040695722852865E-4,1.9164374933494473E-12,0.0
2.0,4.173793783461663E-4,4.792593806210467E-12,0.0
2.5,6.261466192040749E-4,9.589687335401096E-12,0.0
3.0,8.767501311250239E-4,1.679246257550938E-11,0.0
3.5,0.0011692418279112412,2.688899518994349E-11,0.0
4.0,0.001503684154438208,4.037147781240701E-11,0.0
4.5,0.0018801501699539764,5.773702442349427E-11,0.0
5.0,0.0022987236463563395,7.948849716156445E-11,0.0
5.5,0.0027594991817718297,1.0613535960432091E-10,0.0
6.0,0.0032625823298141525,1.3819456076930773E-10,0.0
6.5,0.0038080897449556126,1.7619145433049615E-10,0.0
7.0,0.004396149344503739,2.206607578374375E-10,0.0
7.5,0.005026900487737061,2.7214755705684544E-10,0.0
8.0,0.005700494172819246,3.312083609383187E-10,0.0
8.5,0.006417093252180109,3.984122131413298E-10,0.0
9.0,0.00717687266712571,4.743418665555129E-10,0.0
9.5,0.007980019702518637,5.595950278075529E-10,0.0
10.0,0.008826734262454007,6.547856793835514E-10,0.0
10.5,0.009717229167947594,7.605454877148164E-10,0.0
11.0,0.010651730477750317,8.775253063882174E-10,0.0
11.5,0.011630477833509265,1.0063967845618385E-9,0.0
12.0,0.01265372483060989,1.147854091706893E-9,0.0
12.5,0.013721739416158646,1.3026157709741778E-9,0.0
13.0,0.014834804315700629,1.4714267348168653E-9,0.0
13.5,0.01599321749041461,1.6550604180132874E-9,0.0
14.0,0.0171972926266891,1.8543211049493763E-9,0.0
14.5,0.018447359660159847,2.070046449970529E-9,0.0
15.0,0.019743765336482852,2.3031102118318537E-9,0.0
15.5,0.021086873811329877,2.554425225804829E-9,0.0
16.0,0.022477067292327804,2.8249466398850378E-9,0.0
16.5,0.023914746725921553,3.1156754448457122E-9,0.0
17.0,0.025400332532425716,3.427662331660669E-9,0.0
17.5,0.026934265392845852,3.762011914154657E-9,0.0
18.0,0.02851700709140057,4.119887359719203E-9,0.0
18.5,0.03014904141806427,4.502515476663542E-9,0.0
19.0,0.03183087513588264,4.911192313377498E-9,0.0
19.5,0.03356303901829543,5.347289332112025E-9,0.0
20.0,0.035346088962238315,5.8122602290046436E-9,0.0
20.5,0.03718060718339813,6.307648482191235E-9,0.0
21.0,0.0390672035006694,6.835095721685438E-9,0.0
21.5,0.041006516717617784,7.3963510284420486E-9,0.0
22.0,0.04299921610960706,7.993281285960486E-9,0.0
22.5,0.0450460030262068,8.627882726278152E-9,0.0
23.0,0.04714761261958199,9.302293833637795E-9,0.0
23.5,0.0493048157107935,1.0018809793900131E-8,0.0
24.0,0.05151842080733096,1.0779898706325604E-8,0.0
24.5,0.0537892762867829,1.158821980703171E-8,0.0
25.0,0.056118272763354106,1.2446643990469529E-8,0.0
25.5,0.05850634565600199,1.3358276956578206E-8,0.0
26.0,0.060954477979325565,1.4326485356206388E-8,0.0
26.5,0.0634637033810532,1.5354926354195026E-8,0.0
27.0,0.06603510945309801,1.644758107452832E-8,0.0
27.5,0.06866984134675672,1.7608792428119154E-8,0.0
28.0,0.07136910572680387,1.8843307838116785E-8,0.0
28.5,0.07413417510408586,2.015632734680629E-8,0.0
29.0,0.07696639259187148,2.1553557470941345E-8,0.0
29.5,0.07986717713782687,2.3041270896105207E-8,0.0
30.0,0.08283802929123653,2.462637153807901E-8,0.0
30.5,0.08588053757422191,2.631646342735053E-8,0.0
31.0,0.08899638553649908,2.81199199034659E-8,0.0
31.5,0.09218735958601686,3.004594606935941E-8,0.0
32.0,0.09545535770306623,3.210462122645817E-8,0.0
32.5,0.09880239916369245,3.430689730310608E-8,0.0
33.0,0.10223063542015806,3.666451164507035E-8,0.0
33.5,0.1057423623126549,3.9189745919566467E-8,0.0
34.0,0.10934003381852889,4.1894930729941405E-8,0.0
34.5,0.11302627758434329,4.479158265678624E-8,0.0
35.0,0.11680391253397115,4.788914675910369E-8,0.0
35.5,0.1206759689050773,5.1193653259167525E-8,0.0
36.0,0.12464571114041985,5.4707204070069405E-8,0.0
36.5,0.12871666415393504,5.842942697143388E-8,0.0
37.0,0.13289264360885344,6.236086863053902E-8,0.0
37.5,0.13717779099123864,6.650667757680785E-8,0.0
38.0,0.14157661444827238,7.087904905519522E-8,0.0
38.5,0.1460940366026706,7.549825354812553E-8,0.0
39.0,0.1507354508713342,8.039285386407053E-8,0.0
39.5,0.15550678823240563,8.559970659268391E-8,0.0
40.0,0.16041459693693827,9.11640985707587E-8,0.0
40.5,0.16546613840286925,9.714018666535975E-8,0.0
41.0,0.17066950353785035,1.0359182634824423E-7,0.0
41.5,0.17603375512904693,1.1059385703622772E-7,0.0
42.0,0.1815691038860814,1.1823393152735684E-7,0.0
42.5,0.18728712849506213,1.2661502081278147E-7,0.0
43.0,0.19320105405656088,1.3585879404399457E-7,0.0
43.5,0.19932610921239988,1.461101758807164E-7,0.0
44.0,0.20567999122602854,1.5754353975619244E-7,0.0
44.5,0.21228348215336731,1.7037124202290662E-7,0.0
45.0,0.2191612813257888,1.8485560434068149E-7,0.0
45.5,0.2263431556600435,2.013261336033912E-7,0.0
46.0,0.23386557116529327,2.2020497229759442E-7,0.0
46.5,0.2417740789921282,2.420457968087069E-7,0.0
47.0,0.2501269348596083,2.6759572014496214E-7,0.0
47.5,0.25900083812924235,2.978987782269334E-7,0.0
48.0,0.26850054505349386,3.344798632482779E-7,0.0
48.5,0.2787761349237137,3.7969823585961413E-7,0.0
49.0,0.2900570038866721,4.3750100245082627E-7,0.0
49.5,0.30272783320694574,5.152771817824253E-7,0.0
50.0,0.31753334069729466,6.295115630443234E-7,0.0
50.5,0.33633092635204276,8.305342514566961E-7,0.0
51.0,0.3673913237003488,1.440496423659064E-6,0.0
51.5,6.617042614264599,0.0033795484110458337,0.0
52.0,12.86148662977404,0.006757635999913656,0.0
52.5,19.105930515657523,0.010135724839947277,0.0
53.0,25.350374370978003,0.01351381367154554,0.0
53.5,31.59481821273388,0.016891902497168217,0.0
54.0,37.839262046860725,0.020269991319115558,0.0
54.5,44.083705876104816,0.023648080138624333,0.0
55.0,50.32814970195792,0.027026168956406957,0.0
55.5,56.572593525319526,0.03040425777290638,0.0
56.0,62.81703734677347,0.03378234658841555,0.0
56.5,69.06148116672006,0.03716043540313781,0.0
57.0,75.30592498544564,0.04053852421721996,0.0
57.5,81.55036880316209,0.043916613030771316,0.0
58.0,87.79481262003057,0.04729470184387548,0.0
58.5,94.03925643617649,0.05067279065659776,0.0
59.0,100.28370025169939,0.05405087946899017,0.0
59.5,106.52814406667952,0.05742896828109478,0.0
60.0,112.77258788118264,0.06080705709294613,0.0
60.5,119.01703169526321,0.06418514590457285,0.0
61.0,125.26147550896681,0.06756323471599904,0.0
61.5,131.50591932233215,0.07094132352724507,0.0
62.0,137.75036313539215,0.07431941233832837,0.0
62.5,143.99480694817524,0.07769750114926398,0.0
63.0,150.23925076070603,0.08107558996006496,0.0
63.5,156.48369457300592,0.08445367877074267,0.0
64.0,162.72813838509379,0.0878317675813071,0.0
64.5,168.97258219698625,0.09120985639176711,0.0
65.0,175.21702600869804,0.09458794520213051,0.0
65.5,181.46146982024229,0.0979660340124043,0.0
66.0,187.70591363163075,0.10134412282259471,0.0
66.5,193.95035744287395,0.10472221163270741,0.0
67.0,200.1948012539815,0.10810030044274747,0.0
67.5,206.43924506496194,0.11147838925271945,0.0
68.0,212.6836888758231,0.11485647806262755,0.0
68.5,218.92813268657207,0.11823456687247555,0.0
69.0,225.1725764972154,0.12161265568226687,0.0
69.5,231.41702030775903,0.1249907444920048,0.0
70.0,237.66146411820841,0.1283688333016922,0.0
70.5,243.9059079285687,0.13174692211133174,0.0
71.0,250.15035173884422,0.1351250109209259,0.0
71.5,256.39479554903943,0.138503099730477,0.0
72.0,262.6392393591584,0.1418811885399871,0.0
72.5,268.88368316920474,0.14525927734945823,0.0
73.0,275.12812697918184,0.14863736615889223,0.0
73.5,281.3725707890929,0.15201545496829072,0.0
74.0,287.61701459894084,0.15539354377765535,0.0
74.5,293.86145840872837,0.15877163258698762,0.0
75.0,300.10590221845825,0.16214972139628886,0.0
75.5,306.35034602813283,0.16552781020556043,0.0
76.0,312.59478983775443,0.16890589901480346,0.0
76.5,318.8392336473251,0.17228398782401919,0.0
77.0,325.083677456847,0.17566207663320868,0.0
77.5,331.3281212663218,0.17904016544237297,0.0
78.0,337.57256507575147,0.1824182542515129,0.0
78.5,343.81700888513774,0.18579634306062953,0.0
79.0,350.0614526944821,0.18917443186972363,0.0
79.5,356.3058965037861,0.19255252067879602,0.0
80.0,362.55034031305104,0.19593060948784752,0.0
80.5,368.79478412227843,0.19930869829687878,0.0
81.0,375.03922793146955,0.2026867871058905,0.0
81.5,381.2836717406256,0.20606487591488334,0.0
82.0,387.52811554974767,0.20944296472385796,0.0
82.5,393.77255935883693,0.21282105353281494,0.0
83.0,400.0170031678944,0.21619914234175483,0.0
83.5,406.26144697692115,0.21957723115067815,0.0
84.0,412.5058907859179,0.22295531995958548,0.0
84.5,418.750334594886,0.2263334087684772,0.0
85.0,424.9947784038259,0.22971149757735387,0.0
85.5,431.23922221273864,0.23308958638621582,0.0
86.0,437.4836660216249,0.23646767519506356,0.0
86.5,443.72810983048555,0.23984576400389762,0.0
87.0,449.97255363932123,0.2432238528127182,0.0
87.5,456.2169974481328,0.2466019416215258,0.0
88.0,462.46144125692064,0.24998003043032077,0.0
88.5,468.70588506568566,0.25335811923910334,0.0
89.0,474.95032887442835,0.25673620804787395,0.0
89.5,481.19477268314915,0.26011429685663273,0.0
90.0,487.43921649184915,0.26349238566538014,0.0
90.5,493.68366030052823,0.26687047447411655,0.0
91.0,499.9281041091873,0.27024856328284214,0.0
91.5,506.1725479178268,0.2736266520915571,0.0
92.0,512.4169917264473,0.27700474090026195,0.0
92.5,518.6614355350493,0.28038282970895667,0.0
93.0,524.9058793436329,0.28376091851764174,0.0
93.5,531.1503231521989,0.2871390073263172,0.0
94.0,537.3947669607475,0.29051709613498333,0.0
94.5,543.6392107692793,0.29389518494364025,0.0
95.0,549.8836545777947,0.29727327375228835,0.0
95.5,556.1280983862938,0.3006513625609277,0.0
96.0,562.3725421947771,0.30402945136955867,0.0
96.5,568.6169860032451,0.30740754017818134,0.0
97.0,574.8614298116978,0.3107856289867959,0.0
97.5,581.105873620136,0.31416371779540253,0.0
98.0,587.3503174285597,0.31754180660400133,0.0
98.5,593.5947612369692,0.3209198954125925,0.0
99.0,599.8392050453651,0.32429798422117634,0.0
99.5,606.0836488537473,0.3276760730297528,0.0
100.0,612.3280926621161,0.3310541618383221,0.0
100.5,618.5725364704722,0.33443225064688437,0.0
101.0,624.8169802788153,0.33781033945543987,0.0
101.5,631.0614240871461,0.34118842826398865,0.0
102.0,637.3058678954645,0.3445665170725309,0.0
102.5,643.5503117037713,0.3479446058810666,0.0
103.0,649.794755512066,0.35132269468959604,0.0
103.5,656.0391993203493,0.35470078349811934,0.0
104.0,662.2836431286212,0.35807887230663643,0.0
104.5,668.5280869368822,0.3614569611151477,0.0
105.0,674.7725307451323,0.36483504992365307,0.0
105.5,681.0169745533717,0.36821313873215256,0.0
106.0,687.2614183616006,0.3715912275406465,0.0
106.5,693.5058621698192,0.37496931634913494,0.0
107.0,699.7503059780278,0.37834740515761783,0.0
107.5,705.9947497862263,0.38172549396609545,0.0
108.0,712.2391935944153,0.3851035827745678,0.0
108.5,718.4836374025947,0.388481671583035,0.0
109.0,724.7280812107646,0.39185976039149717,0.0
109.5,730.9725250189252,0.39523784919995436,0.0
110.0,737.2169688270768,0.3986159380084066,0.0
110.5,743.4614126352196,0.4019940268168541,0.0
111.0,749.7058564433535,0.4053721156252968,0.0
111.5,755.9503002514788,0.40875020443373483,0.0
112.0,762.1947440595956,0.4121282932421684,0.0
112.5,768.4391878677039,0.4155063820505974,0.0
113.0,774.6836316758041,0.41888447085902203,0.0
113.5,780.9280754838962,0.4222625596674423,0.0
114.0,787.1725192919804,0.42564064847585825,0.0
114.5,793.416963100057,0.4290187372842701,0.0
115.0,799.6614069081257,0.4323968260926777,0.0
115.5,805.9058507161869,0.43577491490108117,0.0
116.0,812.1502945242407,0.4391530037094807,0.0
116.5,818.394738332287,0.44253109251787626,0.0
117.0,824.6391821403263,0.4459091813262679,0.0
117.5,830.8836259483584,0.44928727013465575,0.0
118.0,837.1280697563833,0.45266535894303983,0.0
118.5,843.3725135644015,0.45604344775142014,0.0
119.0,849.6169573724129,0.4594215365597968,0.0
119.5,855.8614011804175,0.4627996253681698,0.0
120.0,862.1058449884154,0.46617771417653936,0.0
120.5,868.3502887964069,0.46955580298490535,0.0
121.0,874.5947326043919,0.47293389179326784,0.0
121.5,880.8391764123708,0.4763119806016269,0.0
122.0,887.0836202203432,0.47969006940998266,0.0
122.5,893.3280640283095,0.4830681582183351,0.0
123.0,899.5725078362698,0.48644624702668426,0.0
123.5,905.8169516442241,0.4898243358350304,0.0
124.0,912.0613954521725,0.49320242464337316,0.0
124.5,918.305839260115,0.49658051345171283,0.0
125.0,924.5502830680518,0.49995860226004946,0.0
125.5,930.7947268759831,0.503336691068383,0.0
126.0,937.0391706839088,0.5067147798767137,0.0
126.5,943.2836144918289,0.5100928686850412,0.0
127.0,949.5280582997437,0.5134709574933658,0.0
127.5,955.7725021076532,0.5168490463016876,0.0
128.0,962.0169459155571,0.5202271351100065,0.0
128.5,968.2613897234561,0.5236052239183225,0.0
129.0,974.5058335313499,0.5269833127266359,0.0
129.5,980.7502773392387,0.5303614015349464,0.0
130.0,986.9947211471224,0.5337394903432542,0.0
130.5,993.2391649550011,0.5371175791515596,0.0
131.0,999.4836087628747,0.5404956679598621,0.0
131.5,1005.7280525707437,0.5438737567681622,0.0
132.0,1011.9724963786081,0.5472518455764595,0.0
132.5,1018.2169401864677,0.5506299343847543,0.0
133.0,1024.4613839943224,0.5540080231930467,0.0
133.5,1030.7058278021725,0.5573861120013366,0.0
134.0,1036.9502716100183,0.560764200809624,0.0
134.5,1043.1947154178595,0.5641422896179089,0.0
135.0,1049.4391592256964,0.5675203784261914,0.0
135.5,1055.6836030335287,0.5708984672344716,0.0
136.0,1061.9280468413567,0.5742765560427495,0.0
136.5,1068.1724906491806,0.5776546448510252,0.0
137.0,1074.4169344569998,0.5810327336592985,0.0
137.5,1080.6613782648153,0.5844108224675695,0.0
138.0,1086.9058220726265,0.5877889112758383,0.0
138.5,1093.1502658804336,0.5911670000841049,0.0
139.0,1099.3947096882364,0.5945450888923696,0.0
139.5,1105.6391534960353,0.5979231777006319,0.0
140.0,1111.8835973038306,0.6013012665088922,0.0
140.5,1118.128041111622,0.6046793553171501,0.0
141.0,1124.3724849194095,0.6080574441254061,0.0
141.5,1130.6169287271935,0.6114355329336602,0.0
142.0,1136.8613725349735,0.6148136217419119,0.0
142.5,1143.1058163427497,0.6181917105501616,0.0
143.0,1149.3502601505222,0.6215697993584096,0.0
143.5,1155.594703958291,0.6249478881666557,0.0
144.0,1161.8391477660557,0.6283259769748997,0.0
144.5,1168.0835915738173,0.6317040657831418,0.0
145.0,1174.3280353815753,0.6350821545913818,0.0
145.5,1180.5724791893301,0.6384602433996202,0.0
146.0,1186.816922997081,0.6418383322078565,0.0
146.5,1193.0613668048286,0.645216421016091,0.0
147.0,1199.305810612573,0.6485945098243237,0.0
147.5,1205.5502544203139,0.6519725986325547,0.0
148.0,1211.7946982280512,0.655350687440784,0.0
148.5,1218.0391420357857,0.6587287762490114,0.0
149.0,1224.283585843517,0.6621068650572371,0.0
149.5,1230.528029651245,0.6654849538654609,0.0
150.0,1236.77247345897,0.6688630426736831,0.0
150.5,1243.0169172666917,0.6722411314819037,0.0
151.0,1249.2613610744104,0.6756192202901226,0.0
151.5,1255.5058048821259,0.6789973090983396,0.0
152.0,1261.7502486898381,0.6823753979065552,0.0
152.5,1267.9946924975472,0.6857534867147691,0.0
153.0,1274.2391363052536,0.6891315755229814,0.0
153.5,1280.4835801129568,0.6925096643311921,0.0
154.0,1286.7280239206573,0.6958877531394011,0.0
154.5,1292.9724677283548,0.6992658419476087,0.0
155.0,1299.216911536049,0.7026439307558145,0.0
155.5,1305.4613553437407,0.706022019564019,0.0
156.0,1311.7057991514298,0.7094001083722219,0.0
156.5,1317.9502429591162,0.7127781971804232,0.0
157.0,1324.1946867667998,0.7161562859886232,0.0
157.5,1330.4391305744803,0.7195343747968217,0.0
158.0,1336.6835743821584,0.7229124636050186,0.0
158.5,1342.9280181898334,0.726290552413214,0.0
159.0,1349.172461997506,0.7296686412214082,0.0
159.5,1355.416905805176,0.733046730029601,0.0
160.0,1361.6613496128434,0.7364248188377921,0.0
160.5,1367.9057934205084,0.7398029076459819,0.0
161.0,1374.150237228171,0.7431809964541704,0.0
161.5,1380.394681035831,0.7465590852623574,0.0
162.0,1386.6391248434882,0.7499371740705431,0.0
162.5,1392.8835686511432,0.7533152628787274,0.0
163.0,1399.1280124587954,0.7566933516869104,0.0
163.5,1405.3724562664452,0.7600714404950923,0.0
164.0,1411.6169000740924,0.7634495293032727,0.0
164.5,1417.8613438817372,0.7668276181114518,0.0
165.0,1424.1057876893794,0.7702057069196296,0.0
165.5,1430.3502314970196,0.7735837957278061,0.0
166.0,1436.5946753046571,0.7769618845359814,0.0
166.5,1442.8391191122926,0.7803399733441554,0.0
167.0,1449.083562919926,0.7837180621523282,0.0
167.5,1455.3280067275568,0.7870961509604997,0.0
168.0,1461.5724505351852,0.79047423976867,0.0
168.5,1467.8168943428113,0.7938523285768391,0.0
169.0,1474.0613381504354,0.797230417385007,0.0
169.5,1480.3057819580574,0.8006085061931736,0.0
170.0,1486.550225765677,0.8039865950013392,0.0
170.5,1492.7946695732942,0.8073646838095035,0.0
171.0,1499.0391133809094,0.8107427726176668,0.0
171.5,1505.2835571885225,0.8141208614258288,0.0
172.0,1511.5280009961336,0.8174989502339898,0.0
172.5,1517.7724448037425,0.8208770390421494,0.0
173.0,1524.0168886113493,0.824255127850308,0.0
173.5,1530.261332418954,0.8276332166584655,0.0
174.0,1536.505776226557,0.831011305466622,0.0
174.5,1542.7502200341576,0.8343893942747773,0.0
175.0,1548.9946638417564,0.8377674830829314,0.0
175.5,1555.239107649353,0.8411455718910844,0.0
176.0,1561.4835514569477,0.8445236606992366,0.0
176.5,1567.7279952645404,0.8479017495073876,0.0
177.0,1573.9724390721312,0.8512798383155376,0.0
177.5,1580.2168828797203,0.8546579271236864,0.0
178.0,1586.461326687307,0.8580360159318343,0.0
178.5,1592.7057704948918,0.8614141047399811,0.0
179.0,1598.9502143024747,0.864792193548127,0.0
179.5,1605.1946581100558,0.8681702823562718,0.0
180.0,1611.439101917635,0.8715483711644155,0.0
180.5,1617.6835457252128,0.8749264599725582,0.0
181.0,1623.9279895327884,0.8783045487807,0.0
181.5,1630.1724333403624,0.8816826375888409,0.0
182.0,1636.4168771479342,0.8850607263969807,0.0
182.5,1642.6613209555044,0.8884388152051196,0.0
183.0,1648.9057647630727,0.8918169040132575,0.0
183.5,1655.1502085706395,0.8951949928213946,0.0
184.0,1661.3946523782047,0.8985730816295306,0.0
184.5,1667.639096185768,0.9019511704376658,0.0
185.0,1673.8835399933294,0.9053292592457999,0.0
185.5,1680.1279838008893,0.908707348053933,0.0
186.0,1686.3724276084472,0.9120854368620656,0.0
186.5,1692.6168714160035,0.915463525670197,0.0
187.0,1698.8613152235584,0.9188416144783276,0.0
187.5,1705.1057590311113,0.9222197032864571,0.0
188.0,1711.3502028386624,0.9255977920945858,0.0
188.5,1717.5946466462124,0.928975880902714,0.0
189.0,1723.8390904537607,0.9323539697108408,0.0
189.5,1730.0835342613072,0.9357320585189669,0.0
190.0,1736.327978068852,0.9391101473270922,0.0
190.5,1742.5724218763955,0.9424882361352166,0.0
191.0,1748.8168656839375,0.9458663249433398,0.0
191.5,1755.0613094914777,0.9492444137514625,0.0
192.0,1761.3057532990163,0.9526225025595845,0.0
192.5,1767.5501971065535,0.9560005913677052,0.0
193.0,1773.794640914089,0.9593786801758255,0.0
193.5,1780.0390847216229,0.962756768983945,0.0
194.0,1786.283528529155,0.9661348577920632,0.0
194.5,1792.5279723366862,0.9695129466001811,0.0
195.0,1798.7724161442159,0.972891035408298,0.0
195.5,1805.0168599517438,0.9762691242164142,0.0
196.0,1811.26130375927,0.9796472130245296,0.0
196.5,1817.505747566795,0.9830253018326441,0.0
197.0,1823.7501913743185,0.9864033906407579,0.0
197.5,1829.9946351818405,0.9897814794488707,0.0
198.0,1836.2390789893614,0.9931595682569828,0.0
198.5,1842.4835227968808,0.9965376570650941,0.0
199.0,1848.7279666043987,0.999915745873205,0.0
199.5,1854.9724104119155,1.0032938346813145,0.0
200.0,1861.2168542194304,1.0066719234894237,0.0
200.5,1867.461298026944,1.010050012297532,0.0
201.0,1873.7057418344564,1.0134281011056396,0.0
201.5,1879.950185641967,1.0168061899137468,0.0
202.0,1886.1946294494765,1.0201842787218527,0.0
202.5,1892.4390732569848,1.023562367529958,0.0
203.0,1898.6835170644915,1.0269404563380629,0.0
203.5,1904.927960871997,1.0303185451461667,0.0
204.0,1911.1724046795011,1.0336966339542701,0.0
204.5,1917.4168484870038,1.0370747227623727,0.0
205.0,1923.6612922945058,1.0404528115704745,0.0
205.5,1929.905736102006,1.0438309003785755,0.0
206.0,1936.1501799095051,1.047208989186676,0.0
206.5,1942.3946237170028,1.0505870779947757,0.0
